tempo,temp,h,vazao,vazaoideal,tempideal+
1,-5.319308177178269,2.158158475531111,0.012521980673998822,0.084, 57.0
2,13.595696980694546,2.8692420669858123,0.013007675598723975,0.084, 57.0
3,24.93923064549113,3.576899024784207,0.01499828583711111,0.084, 57.0
4,32.41472133588521,4.274732378354962,0.016746010974052355,0.084, 57.0
5,37.73571702304219,4.966665839912359,0.018306802518818763,0.084, 57.0
6,41.724787146657356,5.6546158929071275,0.019732881235367757,0.084, 57.0
7,44.444468549236895,6.279378103398708,0.02105521042411875,0.084, 57.0
8,46.24625429276564,6.82829096656722,0.022187907591894707,0.084, 57.0
9,47.5726115774936,7.336330770170051,0.02313737262047854,0.084, 57.0
10,48.60483604491328,7.817989325547871,0.02398266733249936,0.084, 57.0
11,49.435834138272945,8.280629994244345,0.02475743046285202,0.084, 57.0
12,50.120673100355425,8.728658666992429,0.025479430754017183,0.084, 57.0
13,50.69497308775554,9.164985874062781,0.026159641425145843,0.084, 57.0
14,51.18318164310921,9.591668557426097,0.02680550116163699,0.084, 57.0
15,51.60281372610109,10.01023237592668,0.027422377995028186,0.084, 57.0
16,51.96861918649118,10.422413810418073,0.02801432166361791,0.084, 57.0
17,52.29247205043933,10.829894583015948,0.028585262684410945,0.084, 57.0
18,52.58051339617716,11.233079408236843,0.029138698243203153,0.084, 57.0
19,52.83779865464852,11.63233424446293,0.02967614236395574,0.084, 57.0
20,53.06851552906795,12.027987661406485,0.03019892390079312,0.084, 57.0
21,53.276161009395054,12.420336006316282,0.03070821116011593,0.084, 57.0
22,53.46367608735933,12.809647397129906,0.03120503713978236,0.084, 57.0
23,53.633548797647265,13.196164501899869,0.03169031959344974,0.084, 57.0
24,53.78789389424581,13.580106366179967,0.03216487675942425,0.084, 57.0
25,53.92852089171293,13.961672101718495,0.03262943976087407,0.084, 57.0
26,54.056984564886164,14.341042448960417,0.03308466552308985,0.084, 57.0
27,54.174627598229456,14.718382028957304,0.033531145641008106,0.084, 57.0
28,54.28261167097454,15.093822856384385,0.0339694149356484,0.084, 57.0
29,54.38194564880597,15.467441865289436,0.03439993767349784,0.084, 57.0
30,54.47351735175981,15.839369699293714,0.034823087775765836,0.084, 57.0
31,54.558105540745295,16.20972611750147,0.03523927616204151,0.084, 57.0
32,54.63639529533725,16.578620899035066,0.03564887834998621,0.084, 57.0
33,54.70899023601052,16.946154283372252,0.03605223818966514,0.084, 57.0
34,54.77642454713361,17.312418328021916,0.03644967072301731,0.084, 57.0
35,54.839173247141915,17.67749823998831,0.03684146572704347,0.084, 57.0
36,54.89765826706476,18.04147204359376,0.03722789091548276,0.084, 57.0
37,54.95225587746617,18.40441158331437,0.037609193134362125,0.084, 57.0
38,55.00330260562249,18.766383190011002,0.037985600799932684,0.084, 57.0
39,55.05110013544516,19.12744818035142,0.03835732579438852,0.084, 57.0
40,55.09592026672633,19.487663793345863,0.038724565037448144,0.084, 57.0
41,55.138006976622066,19.847082599054026,0.03908750236838261,0.084, 57.0
42,55.17758035662576,20.205753349630605,0.03944630877237864,0.084, 57.0
43,55.21483965008916,20.56372151861867,0.03980114398621024,0.084, 57.0
44,55.249965274515866,20.921029375223135,0.04015215768871835,0.084, 57.0
45,55.283120685519194,21.277716106655966,0.04049949015750067,0.084, 57.0
46,55.31445443629412,21.633818224806852,0.04084327291931718,0.084, 57.0
47,55.34410214342638,21.989370068266055,0.04118362962179096,0.084, 57.0
48,55.37218716781741,22.34440348840516,0.041520676937545936,0.084, 57.0
49,55.39882249984222,22.698948505388355,0.04185452464777213,0.084, 57.0
50,55.42411122693245,23.053033026370112,0.04218527661189917,0.084, 57.0
51,55.44814758766683,23.406683052451076,0.04251303081723787,0.084, 57.0
52,55.47101800808504,23.75992295017354,0.04283787986481316,0.084, 57.0
53,55.49280186925548,24.112775586072605,0.04315991148384813,0.084, 57.0
54,55.51357279902652,24.465262939586175,0.04347920889285007,0.084, 57.0
55,55.53339795079741,24.817405165860183,0.04379585156682715,0.084, 57.0
56,55.55233922319005,25.169221218254872,0.04410991458848496,0.084, 57.0
57,55.57045373732917,25.520728934164588,0.04442146939837968,0.084, 57.0
58,55.58779489475633,25.87194564893904,0.04473058403864747,0.084, 57.0
59,55.604411724501844,26.222887416313636,0.045037323842306846,0.084, 57.0
60,55.620349430473965,26.57356921849959,0.04534175088634083,0.084, 57.0
61,55.635649955489924,26.924005240868752,0.04564392431343265,0.084, 57.0
62,55.65035270388349,27.274209328123845,0.045943900692954995,0.084, 57.0
63,55.664493682649244,27.624194055558846,0.04624173451899171,0.084, 57.0
64,55.678106361237,27.973971320565063,0.04653747752033637,0.084, 57.0
65,55.69122236170933,28.32355283488645,0.046831179266940325,0.084, 57.0
66,55.703870905353924,28.67294949552073,0.047122887668892895,0.084, 57.0
67,55.716078987379625,29.022171412014483,0.047412648528096644,0.084, 57.0
68,55.727872057818814,29.371228432864925,0.04770050564409078,0.084, 57.0
69,55.7392740867133,29.720130118574964,0.047986501322107356,0.084, 57.0
70,55.75030700821534,30.06888510873849,0.048270676412251336,0.084, 57.0
71,55.76099149403454,30.417501775703027,0.04855306985685969,0.084, 57.0
72,55.771347321111755,30.765988521211735,0.0488337192850915,0.084, 57.0
73,55.78139243231964,31.114352768600074,0.049112661300961896,0.084, 57.0
74,55.791143790335376,31.462601737369567,0.04938993072538416,0.084, 57.0
75,55.80061777518917,31.81074279963405,0.049665561269452846,0.084, 57.0
76,55.80982915641094,32.15878236631279,0.04993958585622541,0.084, 57.0
77,55.81879201766446,32.50672677830841,0.05021203578345458,0.084, 57.0
78,55.827519945172305,32.854582468745335,0.05048294146956356,0.084, 57.0
79,55.836025166331446,33.202355000990124,0.05075233261190696,0.084, 57.0
80,55.844319537481105,33.55005007379508,0.05102023747570787,0.084, 57.0
81,55.852414310230344,33.89767324103243,0.05128668370820572,0.084, 57.0
82,55.860319661168624,34.24522935268032,0.05155169814949787,0.084, 57.0
83,55.86804574101608,34.592723677659684,0.051815306437867734,0.084, 57.0
84,55.87560191417132,34.94016104119731,0.052077533892538726,0.084, 57.0
85,55.88299669811346,35.28754569999254,0.05233840488236023,0.084, 57.0
86,55.89023891398114,35.63488263532089,0.052597942762806,0.084, 57.0
87,55.89733612159368,35.982175736522706,0.052856170865937295,0.084, 57.0
88,55.90429578679693,36.32942911141808,0.05311311116610832,0.084, 57.0
89,55.911125150310525,36.67664692366713,0.05336878528067861,0.084, 57.0
90,55.91783058066612,37.02383260153621,0.05362321436482061,0.084, 57.0
91,55.924418786286694,37.370990261491286,0.05387641855172298,0.084, 57.0
92,55.93089559973246,37.71812323659274,0.054128418012176535,0.084, 57.0
93,55.93726666230869,38.06523487499446,0.05437923189737853,0.084, 57.0
94,55.94353765085995,38.41232881140081,0.054628878939619166,0.084, 57.0
95,55.94971338379789,38.759407844662505,0.05487737765977729,0.084, 57.0
96,55.95579913425814,39.10647555619308,0.05512474557783955,0.084, 57.0
97,55.96179936481755,39.45353471566369,0.055371000384727906,0.084, 57.0
98,55.96771851235479,39.80058824954201,0.05561615881835093,0.084, 57.0
99,55.97356097750766,40.14763922521133,0.055860237367595336,0.084, 57.0
100,55.9793304382631,40.494689948999785,0.05610325226986907,0.084, 57.0
101,55.98503125593986,40.841743785185656,0.056345218892125924,0.084, 57.0
102,55.990666735347915,41.18880287377985,0.0565861530125397,0.084, 57.0
103,55.9962405765718,41.53587002407237,0.056826069240308544,0.084, 57.0
104,56.00175607842144,41.88294765659346,0.057064982343704225,0.084, 57.0
105,56.007216338100505,42.23003805413612,0.057302906525558785,0.084, 57.0
106,56.01262466272984,42.577143916272654,0.05753985560847605,0.084, 57.0
107,56.01798359942169,42.9242670263263,0.057775843421241174,0.084, 57.0
108,56.02329647500579,43.27141036049925,0.05801088290022815,0.084, 57.0
109,56.028565583249126,43.618575578212074,0.05824498752908392,0.084, 57.0
110,56.033793774125044,43.96576522033854,0.058478169647585815,0.084, 57.0
111,56.03898337168199,44.31298119249019,0.05871044194412559,0.084, 57.0
112,56.04413678949207,44.66022562266152,0.05894181644207473,0.084, 57.0
113,56.041477247777586,45.01778682381286,0.05917230508283976,0.084, 57.0
114,56.02711081839978,45.39161445696002,0.059408707164749254,0.084, 57.0
115,56.008886327268485,45.79256459526105,0.05965486211052429,0.084, 57.0
116,55.98902107300562,46.22341974296454,0.059917752496805705,0.084, 57.0
117,55.96758949488682,46.68443365503474,0.06019897098662418,0.084, 57.0
118,55.944669171816734,47.17585023024004,0.06049842641387232,0.084, 57.0
119,55.92035206213715,47.69772232096017,0.060816006594077016,0.084, 57.0
120,55.89474065023615,48.249946058742445,0.06115146302389893,0.084, 57.0
121,55.867946642002345,48.83225508448015,0.061504437002588744,0.084, 57.0
122,55.84008736946484,49.444253453650795,0.06187445998651822,0.084, 57.0
123,55.811283906850235,50.08542820798254,0.06226097871673897,0.084, 57.0
124,55.78165814377104,50.755169719437426,0.06266336706167193,0.084, 57.0
125,55.75133074780785,51.45279198077655,0.06308094249457513,0.084, 57.0
126,55.72041941341329,52.1775516137161,0.06351298206896668,0.084, 57.0
127,55.68903751113897,52.928661767605696,0.06395873706160357,0.084, 57.0
128,55.65729256540606,53.70531360913275,0.0644174439308196,0.084, 57.0
129,55.62528572128393,54.50668303000958,0.06488833937585403,0.084, 57.0
130,55.59311088573236,55.33194723067012,0.06537066581849042,0.084, 57.0
131,55.56085452767326,56.180291285447815,0.06586368242730235,0.084, 57.0
132,55.52859547218631,57.05091601734549,0.06636666962247774,0.084, 57.0
133,55.49640491721179,57.94304458744112,0.06687893402081022,0.084, 57.0
134,55.46434650744581,58.855932636895105,0.06739981228204857,0.084, 57.0
135,55.432477067908486,59.78886009638674,0.06792867670382353,0.084, 57.0
136,55.400846709788595,60.74113901206692,0.06846492993903316,0.084, 57.0
137,55.36949923371687,61.7121151023546,0.06900800894494817,0.084, 57.0
138,55.338472261536026,62.701176505523975,0.06955738511491502,0.084, 57.0
139,55.307798371256006,63.707736409077675,0.07011256833145595,0.084, 57.0
140,55.27750517491234,64.73124243718821,0.07067309625643757,0.084, 57.0
141,55.247615379080784,65.77118313496818,0.07123853877695385,0.084, 57.0
142,55.21814780473217,66.82707290485895,0.0718085005955528,0.084, 57.0
143,55.1891178284914,67.89845545665892,0.07238261197097644,0.084, 57.0
144,55.16053718460086,68.98491513059831,0.0729605297938691,0.084, 57.0
145,55.13241501917477,70.08605504398011,0.07354194276900025,0.084, 57.0
146,55.104757804168244,71.20150810508726,0.07412655877246725,0.084, 57.0
147,55.07756951882255,72.33093919556605,0.07471411001570481,0.084, 57.0
148,55.05085241716265,73.47402891448948,0.07530435334648575,0.084, 57.0
149,55.024606693304634,74.63049093564103,0.07589706098984318,0.084, 57.0
150,54.99883116095117,75.8000554195604,0.0764920289269036,0.084, 57.0
151,54.97352322271342,76.98247415367533,0.0770890676094447,0.084, 57.0
152,54.948678840233185,78.17752438194773,0.07768800405241562,0.084, 57.0
153,54.92429341879422,79.38499358658392,0.07828868316394588,0.084, 57.0
154,54.90036116283625,80.60470065436309,0.07889095954029321,0.084, 57.0
155,54.8768758709887,81.83646985646276,0.07949470756787565,0.084, 57.0
156,54.85383052529363,83.08015016623979,0.08009980796947444,0.084, 57.0
157,54.831217683998695,84.33560304827567,0.08070615697103412,0.084, 57.0
158,54.8090294777004,85.60270518364673,0.0813136598548166,0.084, 57.0
159,54.78586915392244,86.87461818353222,0.0819222319422384,0.084, 57.0
160,54.76148538844053,88.15022138753572,0.08252860150026127,0.084, 57.0
161,54.735884907581564,89.42961107698072,0.08313228829271332,0.084, 57.0
162,54.709076750403625,90.71287782518696,0.0837333954192429,0.084, 57.0
163,54.681065722712326,92.00012455610236,0.08433202014356503,0.084, 57.0
164,54.65018361844058,93.26169180020408,0.08492826246426113,0.084, 57.0
165,54.77320750021443,93.63446490984357,0.08550857639521313,0.084, 57.0
166,54.89599469791534,94.00955985359342,0.08567929766829172,0.084, 57.0
167,55.017845054572604,94.38479194707483,0.08585073961546123,0.084, 57.0
168,55.13877850580407,94.76019073866763,0.08602190237753794,0.084, 57.0
169,55.258812864547124,95.13578044604486,0.08619280105618765,0.084, 57.0
170,55.37796849543203,95.5115947791142,0.08636344821143907,0.084, 57.0
171,55.496266212899265,95.88767045552551,0.08653386060197797,0.084, 57.0
172,55.61291632128786,96.26139060813408,0.08670405621257404,0.084, 57.0
173,55.727778234319445,96.63219966791318,0.08687285550548982,0.084, 57.0
174,55.84075697207809,96.99967884567685,0.08704001639455496,0.084, 57.0
175,55.95173483385647,97.36332307955112,0.08720536005029202,0.084, 57.0
176,56.060559028674334,97.72249662172447,0.08736867018237607,0.084, 57.0
177,56.16703648450985,98.07641133375554,0.08752967345502438,0.084, 57.0
178,56.270917052074275,98.42406468519944,0.08768803024681553,0.084, 57.0
179,56.37186722654824,98.76414295576338,0.08784330749305627,0.084, 57.0
180,56.46944963323265,99.0949413421175,0.08799493626187731,0.084, 57.0
181,56.563067224491085,99.41415893837781,0.08814217719810427,0.084, 57.0
182,56.651892953771956,99.71863703979535,0.08828403061012122,0.084, 57.0
183,56.73478452678231,100.0040392800291,0.08841912204902262,0.084, 57.0
184,56.810134110178645,100.2642970049612,0.08854556273215661,0.084, 57.0
185,56.87569777045727,100.49097876217235,0.08866070654573513,0.084, 57.0
186,56.928646252667974,100.67346253563522,0.08876087389697283,0.084, 57.0
187,56.96617941837928,100.80117973002149,0.08884142875254654,0.084, 57.0
188,56.987550778807964,100.87100907620294,0.08889776426229,0.084, 57.0
189,56.99644091568753,100.89595533504887,0.08892855059863683,0.084, 57.0
190,56.999128341510065,100.89856139208034,0.08893954631246907,0.084, 57.0
191,56.99979818128151,100.89389748010947,0.08894069492161111,0.084, 57.0
192,56.99995396823131,100.88738132259544,0.08893863931071007,0.084, 57.0
193,56.99998953990357,100.8804322080909,0.08893576724631931,0.084, 57.0
194,56.99999762555097,100.8733842999038,0.08893270424941732,0.084, 57.0
195,56.99999946122526,100.86631412061965,0.08892959759895723,0.084, 57.0
196,56.99999987778351,100.85923907670264,0.08892648102256481,0.084, 57.0
197,56.999999972283106,100.8521631207765,0.0889233621924716,0.084, 57.0
198,56.99999999371573,100.84508714987858,0.08892024285093286,0.084, 57.0
199,56.999999998575504,100.83801136752483,0.08891712339336266,0.084, 57.0
200,56.99999999967718,100.83093581987622,0.08891400390947395,0.084, 57.0
201,56.99999999992685,100.82386051740032,0.0889108844196159,0.084, 57.0
202,56.99999999998343,100.81678546247026,0.08890776492840312,0.084, 57.0
203,56.999999999996255,100.80971065562387,0.08890464543688181,0.084, 57.0
204,56.99999999999915,100.802636096983,0.0889015259452891,0.084, 57.0
205,56.99999999999981,100.7955617865753,0.08889840645367873,0.084, 57.0
206,56.99999999999996,100.78848772440706,0.08889528696206288,0.084, 57.0
207,56.999999999999986,100.78141391047963,0.08889216747044429,0.084, 57.0
208,57.00000000000001,100.7743403447934,0.0888890479788236,0.084, 57.0
209,57.0,100.7672670273484,0.08888592848720096,0.084, 57.0
210,56.99999999999999,100.76019395814463,0.08888280899557638,0.084, 57.0
211,57.00000000000001,100.75312113718213,0.0888796895039499,0.084, 57.0
212,56.99999999999999,100.74604856446089,0.08887657001232147,0.084, 57.0
213,57.0,100.73897623998091,0.08887345052069114,0.084, 57.0
214,57.00000000000001,100.73190416374217,0.08887033102905888,0.084, 57.0
215,56.999999999999986,100.72483233574471,0.08886721153742468,0.084, 57.0
216,56.99999999999999,100.71776075598854,0.08886409204578859,0.084, 57.0
217,56.99999999999999,100.71068942447359,0.08886097255415058,0.084, 57.0
218,56.999999999999986,100.70361834119988,0.08885785306251064,0.084, 57.0
219,56.99999999999999,100.69654750616748,0.08885473357086876,0.084, 57.0
220,57.0,100.68947691937629,0.08885161407922498,0.084, 57.0
221,56.99999999999999,100.68240658082635,0.08884849458757926,0.084, 57.0
222,56.99999999999999,100.67533649051768,0.08884537509593163,0.084, 57.0
223,56.99999999999999,100.66826664845027,0.08884225560428206,0.084, 57.0
224,56.999999999999986,100.66119705462413,0.08883913611263057,0.084, 57.0
225,57.00000000000001,100.65412770903927,0.08883601662097716,0.084, 57.0
226,57.0,100.64705861169564,0.08883289712932185,0.084, 57.0
227,57.00000000000001,100.63998976259325,0.08882977763766461,0.084, 57.0
228,56.99999999999999,100.63292116173213,0.08882665814600542,0.084, 57.0
229,56.999999999999986,100.62585280911227,0.08882353865434432,0.084, 57.0
230,57.00000000000001,100.61878470473371,0.08882041916268131,0.084, 57.0
231,56.99999999999999,100.61171684859637,0.08881729967101637,0.084, 57.0
232,56.99999999999999,100.6046492407003,0.0888141801793495,0.084, 57.0
233,57.0,100.59758188104547,0.0888110606876807,0.084, 57.0
234,57.0,100.5905147696319,0.08880794119600997,0.084, 57.0
235,57.0,100.58344790645957,0.08880482170433732,0.084, 57.0
236,57.0,100.5763812915285,0.08880170221266274,0.084, 57.0
237,57.0,100.56931492483871,0.08879858272098623,0.084, 57.0
238,57.00000000000001,100.56224880639017,0.08879546322930781,0.084, 57.0
239,57.0,100.55518293618292,0.08879234373762747,0.084, 57.0
240,56.99999999999999,100.5481173142169,0.0887892242459452,0.084, 57.0
241,56.99999999999999,100.54105194049215,0.08878610475426099,0.084, 57.0
242,56.99999999999999,100.53398681500867,0.08878298526257487,0.084, 57.0
243,56.999999999999986,100.52692193776646,0.08877986577088681,0.084, 57.0
244,56.99999999999999,100.51985730876554,0.08877674627919685,0.084, 57.0
245,56.99999999999999,100.51279292800584,0.08877362678750497,0.084, 57.0
246,57.0,100.5057287954874,0.08877050729581112,0.084, 57.0
247,57.0,100.49866491121021,0.08876738780411539,0.084, 57.0
248,57.0,100.49160127517429,0.0887642683124177,0.084, 57.0
249,57.00000000000001,100.48453788737962,0.08876114882071809,0.084, 57.0
250,56.99999999999999,100.47747474782624,0.08875802932901655,0.084, 57.0
251,57.0,100.4704118565141,0.0887549098373131,0.084, 57.0
252,57.0,100.46334921344322,0.08875179034560772,0.084, 57.0
253,57.0,100.4562868186136,0.0887486708539004,0.084, 57.0
254,57.00000000000001,100.44922467202525,0.08874555136219116,0.084, 57.0
255,56.999999999999986,100.44216277367818,0.08874243187047998,0.084, 57.0
256,57.0,100.43510112357241,0.08873931237876688,0.084, 57.0
257,57.0,100.42803972170785,0.08873619288705188,0.084, 57.0
258,57.0,100.42097856808455,0.08873307339533493,0.084, 57.0
259,57.0,100.41391766270252,0.08872995390361606,0.084, 57.0
260,57.0,100.40685700556175,0.08872683441189524,0.084, 57.0
261,57.0,100.39979659666224,0.08872371492017252,0.084, 57.0
262,57.0,100.392736436004,0.08872059542844783,0.084, 57.0
263,57.0,100.38567652358702,0.08871747593672126,0.084, 57.0
264,57.0,100.37861685941131,0.08871435644499273,0.084, 57.0
265,57.0,100.37155744347686,0.08871123695326229,0.084, 57.0
266,57.0,100.36449827578367,0.08870811746152991,0.084, 57.0
267,57.0,100.35743935633175,0.0887049979697956,0.084, 57.0
268,56.99999999999999,100.3503806851211,0.08870187847805935,0.084, 57.0
269,57.0,100.34332226215172,0.0886987589863212,0.084, 57.0
270,57.0,100.33626408742359,0.0886956394945811,0.084, 57.0
271,57.0,100.32920616093672,0.08869252000283907,0.084, 57.0
272,57.00000000000001,100.32214848269112,0.08868940051109511,0.084, 57.0
273,57.00000000000001,100.31509105268681,0.08868628101934924,0.084, 57.0
274,56.99999999999999,100.30803387092377,0.08868316152760143,0.084, 57.0
275,56.99999999999998,100.30097693740198,0.0886800420358517,0.084, 57.0
276,56.99999999999999,100.29392025212152,0.08867692254410002,0.084, 57.0
277,57.0,100.28686381508227,0.08867380305234646,0.084, 57.0
278,57.0,100.27980762628427,0.08867068356059093,0.084, 57.0
279,57.00000000000001,100.27275168572753,0.08866756406883347,0.084, 57.0
280,56.99999999999999,100.26569599341208,0.08866444457707406,0.084, 57.0
281,57.0,100.2586405493379,0.08866132508531276,0.084, 57.0
282,57.0,100.25158535350496,0.0886582055935495,0.084, 57.0
