tempo,temp,h,vazao,vazaoideal,tempideal+
1,50.68651280849207,1.1584503341224326,0.008854377448471463,0.084, 30.75
2,43.01234601250789,1.8608860245489809,0.009530084270099543,0.084, 30.75
3,39.6744817072944,2.551944671537392,0.012078636691474751,0.084, 30.75
4,37.79752229587529,3.238428609696171,0.014144697319085043,0.084, 30.75
5,36.59363250283743,3.9223869069903268,0.015934014026609235,0.084, 30.75
6,35.75601547814376,4.604692015821991,0.017536109417657087,0.084, 30.75
7,35.13981273205732,5.285817122854625,0.01900020668415068,0.084, 30.75
8,34.66765412985642,5.966049146800588,0.020357015066846187,0.084, 30.75
9,34.29443804037059,6.645577466167134,0.021627257179521544,0.084, 30.75
10,33.99210499424892,7.324531772033472,0.022825715177130886,0.084, 30.75
11,33.74227096950436,8.003008862659998,0.02396337394707649,0.084, 30.75
12,33.53239608532195,8.68108125364389,0.02504867052026003,0.084, 30.75
13,33.35364548675924,9.358800298692966,0.026088249659294526,0.084, 30.75
14,33.199597756477566,10.036210272627425,0.027087449924596607,0.084, 30.75
15,33.06548310895408,10.713345923481297,0.02805064857314337,0.084, 30.75
16,32.94768417902742,11.390235225963359,0.028981482370660987,0.084, 30.75
17,32.843403249865155,12.066903543544969,0.029883012594374203,0.084, 30.75
18,32.750452308306016,12.743368784109496,0.03075784839376652,0.084, 30.75
19,32.66709478014609,13.419643628318287,0.031608228559572654,0.084, 30.75
20,32.59191491168929,14.09574913475407,0.03243609194185012,0.084, 30.75
21,32.52378180229998,14.771690133201728,0.033243145641842005,0.084, 30.75
22,32.461743707556224,15.447484681515885,0.03403087578131094,0.084, 30.75
23,32.40502967239214,16.123135954172234,0.0348006149231712,0.084, 30.75
24,32.35298179301455,16.798655562543814,0.03555353510984672,0.084, 30.75
25,32.305049671673,17.47405082314541,0.03629069572360711,0.084, 30.75
26,32.260770919721885,18.1493242499649,0.03701304613963299,0.084, 30.75
27,32.219534246616576,18.82407671525504,0.03772143980811507,0.084, 30.75
28,32.180892936995754,19.49806520139062,0.03841624154541924,0.084, 30.75
29,32.14458723317044,20.171300190511186,0.03909793232114743,0.084, 30.75
30,32.11039127229382,20.843791489054595,0.039767196719608953,0.084, 30.75
31,32.07810057471139,21.515554849131536,0.04042466144251403,0.084, 30.75
32,32.04753940848342,22.18660150828079,0.04107090819755405,0.084, 30.75
33,32.01855586450298,22.856939089121433,0.04170646902159441,0.084, 30.75
34,31.99101549461919,23.526574690598242,0.04233183228478447,0.084, 30.75
35,31.964798857183556,24.195514917193268,0.04294744993294599,0.084, 30.75
36,31.939794852759444,24.863770584856223,0.04355374116546077,0.084, 30.75
37,31.91590535873804,25.53135047748309,0.0441510998034333,0.084, 30.75
38,31.893045386461257,26.198259536320865,0.04473989134357251,0.084, 30.75
39,31.871138436371293,26.86450229762512,0.04532045396559434,0.084, 30.75
40,31.850115454221612,27.530082910432057,0.04589310384070585,0.084, 30.75
41,31.829913937987303,28.195005152723752,0.0464581370717539,0.084, 30.75
42,31.810477170647893,28.859272446126475,0.04701583141850777,0.084, 30.75
43,31.79174878519291,29.52289324901574,0.04756644783643525,0.084, 30.75
44,31.773680913506777,30.185871310060058,0.04811023623640643,0.084, 30.75
45,31.75623083546743,30.84820878500641,0.04864742861353217,0.084, 30.75
46,31.739359422839257,31.509907513952662,0.04917824283913062,0.084, 30.75
47,31.723030763487845,32.170969029776806,0.04970288471601914,0.084, 30.75
48,31.707211831897652,32.8313945656415,0.05022154888028148,0.084, 30.75
49,31.691872199452547,33.49118506163258,0.050734419617714105,0.084, 30.75
50,31.67698377897499,34.150341170583125,0.05124167160458365,0.084, 30.75
51,31.662520598874117,34.80886326312885,0.051743470581066715,0.084, 30.75
52,31.648455562502225,35.466755221574026,0.05223997396466907,0.084, 30.75
53,31.63476512497957,36.12401838034646,0.052731334227112105,0.084, 30.75
54,31.62142868291303,36.78065205510828,0.053217694811210706,0.084, 30.75
55,31.60842705627294,37.43665528463873,0.0536991910657925,0.084, 30.75
56,31.595742363018434,38.092026831942675,0.054175951992703156,0.084, 30.75
57,31.583357906681883,38.74676518472599,0.05464810064059231,0.084, 30.75
58,31.57125807536489,39.40086855524993,0.05511575446714413,0.084, 30.75
59,31.559428250805738,40.054334879572956,0.055579025672744524,0.084, 30.75
60,31.54785472635504,40.70716181618499,0.05603802150824492,0.084, 30.75
61,31.536524632847133,41.359346744036294,0.056492844559190895,0.084, 30.75
62,31.525425871483908,42.0108867599595,0.05694359300862956,0.084, 30.75
63,31.514547052958626,42.66177867548059,0.057390360880384995,0.084, 30.75
64,31.503876125612702,43.312020806183895,0.05783323826449353,0.084, 30.75
65,31.493400922676205,43.96161211686944,0.058272312732590405,0.084, 30.75
66,31.48311192137316,44.61054832293529,0.05870766891950799,0.084, 30.75
67,31.473000107173927,45.25882482403474,0.059139386101972065,0.084, 30.75
68,31.497472129425244,45.83293772746329,0.059567540373968136,0.084, 30.75
69,31.539663502921947,46.36962323085725,0.059944159997727245,0.084, 30.75
70,31.58163531918326,46.90797478232737,0.06029409972210555,0.084, 30.75
71,31.623316720739886,47.447833642664975,0.060643097075713956,0.084, 30.75
72,31.664654818062395,47.98905292054253,0.06099106621124879,0.084, 30.75
73,31.7056063541367,48.53150425990612,0.06133793075227216,0.084, 30.75
74,31.746129162110194,49.07508764411953,0.06168362776277544,0.084, 30.75
75,31.786194423627023,49.6197057311361,0.062028113555862484,0.084, 30.75
76,31.82578076557674,50.16526977746602,0.062371347021858294,0.084, 30.75
77,31.864871599005035,50.71170111449565,0.06271329325233475,0.084, 30.75
78,31.903447926175687,51.25894272058696,0.06305392428212901,0.084, 30.75
79,31.941501316791737,51.806931295223265,0.0633932260521108,0.084, 30.75
80,31.979026215756395,52.35561001515936,0.06373118085792467,0.084, 30.75
81,32.016019425783064,52.90492784207104,0.06406777524768979,0.084, 30.75
82,32.052474830922996,53.45484968188583,0.06440299948619141,0.084, 30.75
83,32.08839329505066,54.00533354103089,0.06473685360797087,0.084, 30.75
84,32.12377717017342,54.5563411012438,0.0650693334038149,0.084, 30.75
85,32.15862993782798,55.1078375564152,0.0654004368665647,0.084, 30.75
86,32.192953174236834,55.659798082721885,0.0657301640377,0.084, 30.75
87,32.226751278119785,56.21219599147658,0.0660585207954689,0.084, 30.75
88,32.26003044855299,56.76500427549637,0.06638551171552241,0.084, 30.75
89,32.29279737944115,57.31819817021731,0.06671114101256939,0.084, 30.75
90,32.32503651149454,57.87170063859327,0.06703541404768854,0.084, 30.75
91,32.356644894929346,58.42522187861639,0.06735830557596971,0.084, 30.75
92,32.387631781484465,58.978735053125085,0.06767966751753089,0.084, 30.75
93,32.41800629973993,59.53221418116726,0.06799950608765484,0.084, 30.75
94,32.44778700780961,60.085659132554426,0.06831782777433365,0.084, 30.75
95,32.476991098236574,60.6390713159059,0.06863465360874393,0.084, 30.75
96,32.505633697446115,61.19245575128347,0.06895000501208845,0.084, 30.75
97,32.53373127636686,61.74581202655739,0.06926390496427866,0.084, 30.75
98,32.56129962335432,62.29913977178378,0.06957637287816963,0.084, 30.75
99,32.58835388362867,62.85243865517865,0.0698874277542667,0.084, 30.75
100,32.6149085953987,63.405708379191864,0.07019708819150554,0.084, 30.75
101,32.64097622753971,63.95895285860614,0.0705053723976311,0.084, 30.75
102,32.66656982124332,64.51217301122506,0.07081230051420956,0.084, 30.75
103,32.691702407626025,65.06536838001266,0.07111789060482633,0.084, 30.75
104,32.71638652111165,65.61853854659184,0.07142215959345527,0.084, 30.75
105,32.74063422493488,66.1716831278409,0.07172512406439462,0.084, 30.75
106,32.76445713485881,66.72480177276329,0.07202680027061266,0.084, 30.75
107,32.787865393717325,67.27789720511475,0.07232720414190391,0.084, 30.75
108,32.81086932830831,67.83097053349788,0.07262635293666479,0.084, 30.75
109,32.83347942936521,68.38402130863273,0.07292426269648693,0.084, 30.75
110,32.85570581457455,68.93704911413948,0.07322094830440813,0.084, 30.75
111,32.87755824609202,69.49005356400937,0.0735164243591086,0.084, 30.75
112,32.89904614695557,70.04303430022036,0.07381070518168985,0.084, 30.75
113,32.92017861651556,70.59599099057624,0.07410380482227127,0.084, 30.75
114,32.9409634007824,71.14892649944804,0.07439573706645548,0.084, 30.75
115,32.96140885418872,71.70184103011091,0.07468651710688301,0.084, 30.75
116,32.98152325334,72.25473418688553,0.07497615845560972,0.084, 30.75
117,33.00131460068849,72.80760559972158,0.07526467405265119,0.084, 30.75
118,33.02079063632309,73.36045492242576,0.07555207660295098,0.084, 30.75
119,33.039958849103044,73.91328183100443,0.0758383785818116,0.084, 30.75
120,33.05882648719194,74.4660860221437,0.0761235922401902,0.084, 30.75
121,33.07740043133991,75.01886764525084,0.07640772960987693,0.084, 30.75
122,33.095686645618684,75.57162909656127,0.0766908027301036,0.084, 30.75
123,33.11369176202534,76.12437002876881,0.07697282456276633,0.084, 30.75
124,33.131422206167876,76.67709011467282,0.07725380644509029,0.084, 30.75
125,33.1488842055525,77.22978904605051,0.07753375951796966,0.084, 30.75
126,33.16641687226142,77.78132108538504,0.07781269473042532,0.084, 30.75
127,33.18494609074459,78.32847326439223,0.0780900478492246,0.084, 30.75
128,33.204475188720494,78.87116121426655,0.07836422847146746,0.084, 30.75
129,33.22499956031299,79.40932792957747,0.07863522772395651,0.084, 30.75
130,33.2465137253765,79.94291967648698,0.07890305006575395,0.084, 30.75
131,33.26901061520966,80.4718878612535,0.07916770113270044,0.084, 30.75
132,33.29248141862236,80.99618931523568,0.0794291886419739,0.084, 30.75
133,33.316916521462325,81.5157831474624,0.07968752250079356,0.084, 30.75
134,33.34230351533821,82.0306364645441,0.07994271323116982,0.084, 30.75
135,33.36862858697006,82.54071955264583,0.08019477476008183,0.084, 30.75
136,33.395875956902636,83.04600690788888,0.08044372202308539,0.084, 30.75
137,33.42389116655065,83.5461692481354,0.08068957145491906,0.084, 30.75
138,33.45240620569749,84.04065601922908,0.08093219179692229,0.084, 30.75
139,33.48133992038652,84.52940052590012,0.0811713461260041,0.084, 30.75
140,33.510597004905726,85.0123259990527,0.08140703287327557,0.084, 30.75
141,33.5400635638442,85.489337934714,0.0816392452091868,0.084, 30.75
142,33.56960075838102,85.96031730587902,0.08186796744809034,0.084, 30.75
143,33.59903963457107,86.42510394073597,0.08209317192544649,0.084, 30.75
144,33.62816442187993,86.88348508860388,0.08231481123682238,0.084, 30.75
145,33.65670134204725,87.33516409482203,0.08253281305605999,0.084, 30.75
146,33.68427907853337,87.77972480640938,0.08274706559772406,0.084, 30.75
147,33.71039431659911,88.2165613734494,0.08295740126608654,0.084, 30.75
148,33.73430827728006,88.64475763949808,0.08316356420740054,0.084, 30.75
149,33.75490923727052,89.06287221621291,0.08336515458473433,0.084, 30.75
150,33.770342410425755,89.46845275180299,0.08356152931673219,0.084, 30.75
151,33.77726520335915,89.85698274982563,0.0837515772731556,0.084, 30.75
152,33.76851265276183,90.21869267857525,0.08393323208113894,0.084, 30.75
153,33.72445993138196,90.52667470448098,0.0841019946612463,0.084, 30.75
154,33.65275081821725,90.79442447595831,0.08424542300226945,0.084, 30.75
155,33.58145634850366,91.06221182800587,0.08436991690712474,0.084, 30.75
156,33.510577258514544,91.33002002838438,0.08449424481771324,0.084, 30.75
157,33.44010944743611,91.59785100918216,0.08461839971439625,0.084, 30.75
158,33.37004889764276,91.86570658481021,0.08474238325135706,0.084, 30.75
159,33.30039154111381,92.13358897340369,0.08486619701771207,0.084, 30.75
160,33.20262920291555,92.51502287055207,0.08498984277850413,0.084, 30.75
161,33.105675820860725,92.89644651726634,0.08516559042859553,0.084, 30.75
162,33.00948168922083,93.2780209786473,0.08534097144369568,0.084, 30.75
163,32.91403442259116,93.65976076706332,0.08551606191076591,0.084, 30.75
164,32.819321422644144,94.04168231370211,0.08569087024962323,0.084, 30.75
165,32.72533003554415,94.42380336830347,0.0858654056846775,0.084, 30.75
166,32.63204704491254,94.80614515095004,0.08603967796357093,0.084, 30.75
167,32.539459022605016,95.18873098521475,0.08621369833056974,0.084, 30.75
168,32.447551951154296,95.5715879616413,0.08638747889156644,0.084, 30.75
169,32.35631105877145,95.95474776781185,0.0865610333590853,0.084, 30.75
170,32.26572100480325,96.33824603806501,0.08673437741170711,0.084, 30.75
171,32.17576507565915,96.72212598290297,0.08690752838151766,0.084, 30.75
172,32.08642541672164,97.10643763429104,0.08708050687185734,0.084, 30.75
173,31.997682298062617,97.49124132851263,0.08725333638622891,0.084, 30.75
174,31.909513666251943,97.87661007093892,0.08742604486167374,0.084, 30.75
175,31.822251755815728,98.26102409797184,0.08759866568368271,0.084, 30.75
176,31.7361372533751,98.64333130520203,0.08777052061644042,0.084, 30.75
177,31.651217882194523,99.0232273306187,0.08794110059766048,0.084, 30.75
178,31.5675543331514,99.40034063679968,0.08811027762253679,0.084, 30.75
179,31.485225792320296,99.77420465096012,0.0882778947751083,0.084, 30.75
180,31.4043350913369,100.14423057423821,0.0884437541301548,0.084, 30.75
181,31.32501864006307,100.50965668720954,0.08860760507439684,0.084, 30.75
182,31.247459508676894,100.86948084112731,0.08876912235838107,0.084, 30.75
183,31.171908555263173,101.22235215280958,0.08892787694499617,0.084, 30.75
184,31.098718076062006,101.56639879763298,0.08908328916682562,0.084, 30.75
185,31.028396445365562,101.89894868542585,0.08923455421379337,0.084, 30.75
186,30.961700800039168,102.21605665391857,0.08938052123889963,0.084, 30.75
187,30.899803267999733,102.51165929245366,0.08951948861374945,0.084, 30.75
188,30.84455237037281,102.77624427746626,0.0896488376306596,0.084, 30.75
189,30.79893029511017,102.99453887131476,0.08976445594640095,0.084, 30.75
190,30.76715610321511,103.14497190267713,0.08985973429468327,0.084, 30.75
191,30.75244580703626,103.2109298123319,0.08992533456801752,0.084, 30.75
192,30.749981449367066,103.21602927096976,0.08995408216021562,0.084, 30.75
193,30.75004569146358,103.20896652761039,0.08995630436408572,0.084, 30.75
194,30.749998291379242,103.20204404181611,0.0899532266000762,0.084, 30.75
195,30.75000421048228,103.19489485268545,0.08995020985455444,0.084, 30.75
196,30.749999839720797,103.18775882723622,0.0899470942079317,0.084, 30.75
197,30.750000395056794,103.18060213988639,0.08994398419046891,0.084, 30.75
198,30.749999984885388,103.17344691285781,0.08994086506014434,0.084, 30.75
199,30.750000037261916,103.16628997243232,0.08993774645813654,0.084, 30.75
200,30.749999998568846,103.15913339458804,0.0899346270011651,0.084, 30.75
201,30.750000003528893,103.15197687999019,0.0899315075940335,0.084, 30.75
202,30.749999999863945,103.14482062446356,0.08992838810626616,0.084, 30.75
203,30.750000000335554,103.13766459966087,0.08992526862321816,0.084, 30.75
204,30.749999999987022,103.13050882412934,0.08992214913253248,0.084, 30.75
205,30.75000000003202,103.12335329517356,0.08991902964229397,0.084, 30.75
206,30.749999999998757,103.11619801455728,0.08991591015132754,0.084, 30.75
207,30.750000000003077,103.10904298202333,0.08991279066040211,0.084, 30.75
208,30.749999999999883,103.10188819774002,0.08990967116940551,0.084, 30.75
209,30.750000000000302,103.09473366168265,0.08990655167841116,0.084, 30.75
210,30.749999999999993,103.08757937386744,0.08990343218740829,0.084, 30.75
211,30.75000000000003,103.08042533429193,0.08990031269640394,0.084, 30.75
212,30.75,103.07327154295771,0.08989719320539706,0.084, 30.75
213,30.749999999999996,103.06611799986456,0.08989407371438835,0.084, 30.75
214,30.750000000000007,103.05896470501263,0.08989095422337769,0.084, 30.75
215,30.750000000000004,103.05181165840192,0.08988783473236515,0.084, 30.75
216,30.749999999999996,103.0446588600324,0.08988471524135075,0.084, 30.75
217,30.750000000000007,103.03750630990409,0.08988159575033446,0.084, 30.75
218,30.750000000000004,103.030354008017,0.08987847625931629,0.084, 30.75
219,30.75,103.0232019543711,0.08987535676829625,0.084, 30.75
220,30.750000000000004,103.0160501489664,0.08987223727727431,0.084, 30.75
221,30.749999999999996,103.00889859180292,0.0898691177862505,0.084, 30.75
222,30.750000000000007,103.00174728288064,0.08986599829522482,0.084, 30.75
223,30.75,102.9945962221996,0.08986287880419726,0.084, 30.75
224,30.749999999999996,102.98744540975973,0.08985975931316782,0.084, 30.75
225,30.75000000000001,102.98029484556109,0.08985663982213647,0.084, 30.75
226,30.75,102.97314452960369,0.08985352033110329,0.084, 30.75
227,30.75,102.96599446188745,0.0898504008400682,0.084, 30.75
228,30.749999999999996,102.95884464241242,0.08984728134903124,0.084, 30.75
229,30.750000000000007,102.9516950711786,0.08984416185799239,0.084, 30.75
230,30.750000000000004,102.94454574818603,0.08984104236695166,0.084, 30.75
231,30.749999999999993,102.93739667343465,0.08983792287590905,0.084, 30.75
232,30.75000000000003,102.9302478469245,0.08983480338486459,0.084, 30.75
233,30.75,102.92309926865566,0.08983168389381822,0.084, 30.75
234,30.750000000000004,102.91595093862789,0.08982856440277004,0.084, 30.75
235,30.75,102.90880285684135,0.0898254449117199,0.084, 30.75
236,30.750000000000004,102.90165502329599,0.0898223254206679,0.084, 30.75
237,30.749999999999996,102.89450743799186,0.089819205929614,0.084, 30.75
238,30.750000000000014,102.88736010092894,0.08981608643855823,0.084, 30.75
239,30.75,102.88021301210729,0.08981296694750057,0.084, 30.75
240,30.75,102.87306617152677,0.08980984745644106,0.084, 30.75
241,30.75,102.86591957918748,0.08980672796537964,0.084, 30.75
242,30.75,102.85877323508939,0.08980360847431632,0.084, 30.75
243,30.749999999999996,102.8516271392325,0.08980048898325113,0.084, 30.75
244,30.75000000000001,102.84448129161686,0.08979736949218406,0.084, 30.75
245,30.749999999999996,102.83733569224246,0.08979425000111511,0.084, 30.75
246,30.750000000000007,102.83019034110924,0.08979113051004431,0.084, 30.75
247,30.75,102.82304523821725,0.0897880110189716,0.084, 30.75
248,30.749999999999996,102.81590038356643,0.08978489152789702,0.084, 30.75
249,30.750000000000004,102.80875577715685,0.08978177203682053,0.084, 30.75
250,30.749999999999993,102.80161141898847,0.08977865254574217,0.084, 30.75
251,30.75000000000003,102.79446730906135,0.08977553305466193,0.084, 30.75
252,30.750000000000004,102.78732344737553,0.08977241356357982,0.084, 30.75
253,30.75,102.78017983393079,0.08976929407249587,0.084, 30.75
254,30.75,102.77303646872724,0.08976617458140997,0.084, 30.75
255,30.749999999999996,102.76589335176492,0.0897630550903222,0.084, 30.75
256,30.750000000000007,102.75875048304383,0.08975993559923252,0.084, 30.75
257,30.75,102.75160786256396,0.08975681610814099,0.084, 30.75
258,30.75,102.74446549032527,0.08975369661704757,0.084, 30.75
259,30.75,102.7373233663278,0.08975057712595225,0.084, 30.75
260,30.75,102.73018149057154,0.08974745763485505,0.084, 30.75
261,30.750000000000004,102.7230398630565,0.08974433814375596,0.084, 30.75
262,30.749999999999996,102.71589848378268,0.08974121865265498,0.084, 30.75
263,30.75000000000001,102.70875735275008,0.08973809916155213,0.084, 30.75
264,30.75,102.70161646995874,0.08973497967044738,0.084, 30.75
265,30.75,102.69447583540855,0.08973186017934079,0.084, 30.75
266,30.75,102.68733544909958,0.08972874068823228,0.084, 30.75
267,30.75,102.68019531103182,0.08972562119712188,0.084, 30.75
268,30.75,102.67305542120528,0.0897225017060096,0.084, 30.75
269,30.75,102.66591577961995,0.08971938221489544,0.084, 30.75
270,30.75,102.65877638627585,0.08971626272377939,0.084, 30.75
271,30.750000000000004,102.65163724117295,0.08971314323266144,0.084, 30.75
272,30.749999999999996,102.64449834431129,0.0897100237415416,0.084, 30.75
273,30.750000000000014,102.63735969569085,0.08970690425041991,0.084, 30.75
274,30.750000000000004,102.63022129531167,0.08970378475929633,0.084, 30.75
275,30.750000000000004,102.62308314317366,0.08970066526817087,0.084, 30.75
276,30.749999999999996,102.61594523927687,0.0896975457770435,0.084, 30.75
